# 8 columns :: time[sec] tx ty tz qx qy qz qw
1473347522.16922951 1.83484097 -1.48012603 1.35163320 -0.52225822 0.67437358 -0.43940975 0.28175467
1473347522.19921350 1.83830948 -1.47991955 1.35806940 -0.52504488 0.67477721 -0.43473387 0.28286047
1473347522.22025776 1.84022840 -1.47948024 1.36293253 -0.52263650 0.67559252 -0.43400699 0.28646773
1473347522.24405956 1.84190359 -1.47881914 1.36913340 -0.52338979 0.67508782 -0.43175555 0.28966655
1473347522.27933359 1.84544343 -1.47781019 1.37798169 -0.53171639 0.67128689 -0.42705866 0.29029726
1473347522.31276059 1.84991372 -1.47687199 1.38652683 -0.53709239 0.66738577 -0.42849200 0.28726746
1473347522.33728075 1.85378435 -1.47581135 1.39359671 -0.53946144 0.66310120 -0.43184331 0.28773167
1473347522.36807680 1.85797594 -1.47455901 1.40228434 -0.54626642 0.65841185 -0.43069805 0.28737782
1473347522.39996362 1.86306744 -1.47315463 1.41132232 -0.55250086 0.65428895 -0.43338928 0.28075344
1473347522.43382263 1.86843723 -1.47181379 1.42084603 -0.55875690 0.65067364 -0.43318204 0.27707013
1473347522.47151971 1.87449963 -1.47039289 1.43113092 -0.56462834 0.64924893 -0.42854868 0.27571125
1473347522.51822352 1.88218166 -1.46871851 1.44337853 -0.57117765 0.64611331 -0.42902769 0.26875441
1473347522.55607867 1.88789327 -1.46734916 1.45340571 -0.57393138 0.64403837 -0.42883944 0.26816801
1473347522.60235476 1.89498436 -1.46489834 1.46481563 -0.57687049 0.64272132 -0.42691734 0.26808828
1473347522.64948177 1.90222005 -1.46125895 1.47565233 -0.58268368 0.64002047 -0.42578743 0.26373964
1473347522.67681360 1.90613349 -1.45903599 1.48227901 -0.58352978 0.63870387 -0.42658487 0.26377208
1473347522.71718073 1.91180154 -1.45530194 1.49153989 -0.58609645 0.63567500 -0.42787507 0.26330813
1473347522.77741265 1.92089488 -1.44869969 1.50361662 -0.59203025 0.63377936 -0.42515789 0.25896849
1473347522.80529451 1.92521616 -1.44541785 1.50890146 -0.59265891 0.63235663 -0.42863186 0.25525526
1473347522.84570789 1.93182782 -1.44014548 1.51598750 -0.59239422 0.63068977 -0.43536370 0.24851145
1473347522.88641858 1.93721796 -1.43426146 1.52302712 -0.59626812 0.63042971 -0.43067990 0.24806759
1473347522.91038966 1.94066741 -1.43026062 1.52745920 -0.59517378 0.62889634 -0.43435916 0.24817270
1473347522.93670177 1.94360829 -1.42568481 1.53250514 -0.59687400 0.62456451 -0.43941649 0.24611735
1473347522.97309566 1.94798129 -1.41871748 1.53905866 -0.59970878 0.62129553 -0.44066276 0.24527041
1473347523.00620675 1.95209502 -1.41234276 1.54495820 -0.59991083 0.62093373 -0.44028821 0.24636274
1473347523.03287578 1.95460092 -1.40745573 1.55009335 -0.60116356 0.61863225 -0.44297907 0.24426636
1473347523.05968261 1.95716954 -1.40228397 1.55523342 -0.60149374 0.61646842 -0.44663406 0.24226015
1473347523.08816981 1.95992417 -1.39625755 1.56144914 -0.60292536 0.61767157 -0.44451508 0.23951866
1473347523.12692857 1.96362412 -1.38856515 1.56815280 -0.60195625 0.61502264 -0.44576185 0.24635787
1473347523.16523576 1.96726907 -1.38075314 1.57510647 -0.60259463 0.61444320 -0.44610735 0.24561655
1473347523.18867755 1.96898143 -1.37587362 1.57984975 -0.60192843 0.61263730 -0.44878362 0.24688249
1473347523.21576262 1.97075010 -1.36997538 1.58529216 -0.60143746 0.61195210 -0.44870206 0.24990812
1473347523.24420762 1.97234741 -1.36359755 1.59094466 -0.60146974 0.61169873 -0.44862848 0.25058193
1473347523.28025961 1.97435241 -1.35550404 1.59738597 -0.60111560 0.60795207 -0.45444502 0.25006807
1473347523.31285572 1.97652450 -1.34796998 1.60321180 -0.60280163 0.60635587 -0.45329700 0.25196147
1473347523.34185266 1.97783710 -1.34112390 1.60842018 -0.60204083 0.60574811 -0.45459334 0.25290506
1473347523.38512564 1.97951728 -1.33097185 1.61514211 -0.60015398 0.60442522 -0.45937500 0.25191263
1473347523.42460251 1.98142010 -1.32099013 1.62047317 -0.60032929 0.60246426 -0.46143757 0.25242210
1473347523.47052050 1.98350653 -1.30978720 1.62572970 0.60187958 -0.60121397 0.45963300 -0.25499067
1473347523.51548886 1.98486878 -1.29877752 1.62977166 -0.59977867 0.60271604 -0.45968903 0.25629070
1473347523.54114556 1.98573705 -1.29209866 1.63142699 -0.60067225 0.60383351 -0.45573596 0.25861686
1473347523.60171986 1.98675198 -1.27693600 1.63428069 -0.59756754 0.60585313 -0.45640222 0.25990775
1473347523.62947869 1.98656914 -1.26977971 1.63488124 -0.59818629 0.60704275 -0.45261749 0.26231598
1473347523.65526175 1.98608665 -1.26316248 1.63469095 -0.59872251 0.60950627 -0.44733968 0.26442518
1473347523.71064472 1.98494186 -1.24887399 1.63268352 -0.59689380 0.61126253 -0.44630232 0.26625203
1473347523.73549986 1.98454661 -1.24255446 1.63084854 -0.59877468 0.61130549 -0.44277354 0.26781724
1473347523.76041055 1.98322842 -1.23599202 1.62828096 -0.59842258 0.61331860 -0.43944618 0.26947684
1473347523.81859660 1.98030439 -1.22155154 1.62033147 -0.59654633 0.61526573 -0.43906317 0.26982233
1473347523.84606361 1.97929373 -1.21488313 1.61551256 -0.59724297 0.61397407 -0.43755898 0.27363993
1473347523.86679482 1.97730719 -1.20935853 1.61115644 -0.59592115 0.61663680 -0.43514806 0.27437785
1473347523.93261576 1.97221759 -1.19339599 1.59531252 -0.59425048 0.61653698 -0.43732859 0.27475848
1473347523.95463681 1.97112525 -1.18822944 1.58942202 -0.59473571 0.61573099 -0.43648053 0.27685649
1473347523.97235656 1.96931958 -1.18403053 1.58407202 -0.59284396 0.61866176 -0.43417343 0.27800558
1473347523.99885988 1.96658094 -1.17855958 1.57628443 -0.59219772 0.62090046 -0.43026993 0.28045011
1473347524.03740358 1.96359287 -1.17152090 1.56465959 -0.58594400 0.62775283 -0.43037526 0.27816031
1473347524.06782556 1.95822541 -1.16615264 1.55602770 -0.58696138 0.62852261 -0.42492176 0.28262547
1473347524.08880472 1.95533306 -1.16233701 1.54854493 -0.58511758 0.62607837 -0.42616199 0.28991249
1473347524.11567354 1.95066953 -1.15804893 1.54040421 -0.58801531 0.62776615 -0.41902494 0.29080191
1473347524.16166162 1.94344841 -1.15082931 1.52606663 -0.58624427 0.62772813 -0.41914561 0.29426520
1473347524.18018866 1.94034362 -1.14789577 1.51999738 -0.58720513 0.62652138 -0.41741099 0.29737041
1473347524.19598079 1.93801752 -1.14545645 1.51432995 -0.58793141 0.62429267 -0.41631331 0.30212339
1473347524.21765971 1.93528991 -1.14303865 1.50760413 -0.59474382 0.62256487 -0.40846957 0.30306003
1473347524.27921772 1.92519756 -1.13616634 1.48650573 -0.57996690 0.62253308 -0.42283870 0.31192692
1473347524.29837775 1.91955781 -1.13407541 1.48265051 -0.58684415 0.62700810 -0.40743871 0.31059375
1473347524.31612968 1.91617845 -1.13318343 1.47540861 -0.58829779 0.62300271 -0.40900797 0.31382450
1473347524.33730555 1.91263244 -1.13183574 1.46888703 -0.59008353 0.62662556 -0.40410024 0.30958817
1473347524.36758161 1.90743441 -1.13067373 1.45869643 -0.58669529 0.62541641 -0.40857084 0.31259051
1473347524.39745069 1.90296048 -1.12996707 1.44933293 -0.58275747 0.62743949 -0.41028499 0.31365528
1473347524.42743373 1.89826158 -1.12977708 1.44000145 -0.57939886 0.62929543 -0.41190903 0.31403054
1473347524.45507288 1.89237548 -1.13007513 1.43259487 -0.58177516 0.63166238 -0.40793140 0.31005205
1473347524.47969770 1.88635882 -1.13072906 1.42568351 -0.58507615 0.62980244 -0.40417047 0.31253962
1473347524.50841379 1.88105406 -1.13183045 1.41754464 -0.58549310 0.63113297 -0.40235607 0.31141387
1473347524.54591179 1.87386164 -1.13443211 1.40760984 -0.58349600 0.63075056 -0.40711982 0.30974119
1473347524.57613158 1.86911029 -1.13722888 1.39941017 -0.57989655 0.63184945 -0.41195071 0.30786829
1473347524.59829760 1.86410280 -1.13946930 1.39360514 -0.58176024 0.63312312 -0.40731258 0.30790680
1473347524.61808872 1.86219677 -1.14199579 1.38749619 -0.57745547 0.63550327 -0.41035335 0.30706824
1473347524.64083672 1.85787887 -1.14526825 1.38117007 -0.57676446 0.63755173 -0.40995913 0.30463758
1473347524.66685557 1.85304602 -1.14910599 1.37413066 -0.57498357 0.63890891 -0.41125393 0.30341310
1473347524.69052768 1.84871963 -1.15300221 1.36774679 -0.57435741 0.64059429 -0.41074081 0.30173583
1473347524.71642780 1.84210277 -1.15731177 1.36129920 -0.57689985 0.64178005 -0.40640520 0.30023282
1473347524.74408174 1.83763594 -1.16254142 1.35413440 -0.57312369 0.64376346 -0.40994669 0.29839832
1473347524.78111267 1.83063165 -1.16985722 1.34515289 -0.57178649 0.64512566 -0.40888371 0.29947822
1473347524.83305955 1.82256746 -1.18044554 1.33421235 -0.56613519 0.64415469 -0.41522271 0.30355525
1473347524.88157153 1.81306964 -1.19078092 1.32567140 -0.56761504 0.64243052 -0.41386747 0.30628403
1473347524.90458679 1.81112472 -1.19613253 1.32110185 -0.56486517 0.64411059 -0.41496997 0.30634753
1473347524.92502952 1.80822502 -1.20077072 1.31734209 -0.56605689 0.64533283 -0.41271237 0.30462048
1473347524.94552374 1.80499951 -1.20582789 1.31385239 -0.56897773 0.64587539 -0.40926550 0.30267320
1473347524.96787548 1.80183836 -1.21153995 1.31005554 -0.57146661 0.64656048 -0.40590532 0.30104207
1473347525.00118589 1.79868048 -1.22055254 1.30511179 -0.57138055 0.64712974 -0.40639656 0.29931455
1473347525.04554582 1.79472429 -1.23373728 1.30009520 -0.56945834 0.64806511 -0.40746892 0.29949607
1473347525.08129764 1.79284149 -1.24502989 1.29686745 -0.56544386 0.64979323 -0.40881226 0.30152038
1473347525.10543180 1.79071072 -1.25337288 1.29544591 -0.56537668 0.64861899 -0.41012684 0.30238815
1473347525.14661765 1.78981459 -1.26808739 1.29315111 -0.55954148 0.65046558 -0.41308464 0.30523589
1473347525.18651581 1.78825787 -1.28292931 1.29120689 -0.55732580 0.65206634 -0.41137080 0.30817448
1473347525.22410059 1.78676798 -1.29757021 1.28953039 -0.55726640 0.65231799 -0.40955438 0.31016223
1473347525.26418567 1.78645755 -1.31377354 1.28775365 -0.55396483 0.65388216 -0.40884713 0.31369588
1473347525.30530381 1.78666374 -1.33049651 1.28588269 -0.55099029 0.65584353 -0.40693139 0.31731028
1473347525.33583260 1.78669951 -1.34300509 1.28449575 -0.55135890 0.65543785 -0.40682827 0.31764028
1473347525.36405659 1.78689365 -1.35458579 1.28329519 -0.55021586 0.65505651 -0.40748755 0.31955808
1473347525.39817166 1.78765203 -1.36826744 1.28162461 -0.54881193 0.65411859 -0.40708599 0.32436913
1473347525.42309856 1.78853973 -1.37809669 1.28060427 -0.54841097 0.65297410 -0.40872077 0.32529612
1473347525.44915557 1.78957521 -1.38806319 1.27944559 -0.54794585 0.65082988 -0.41141071 0.32698171
1473347525.51230574 1.79144702 -1.41172041 1.27548164 -0.54696466 0.64870597 -0.40956994 0.33505625
1473347525.56602883 1.79078703 -1.43079603 1.27133011 -0.54826184 0.64580401 -0.40821835 0.34015279
1473347525.58981180 1.78959216 -1.43873064 1.26946688 -0.54957001 0.64261720 -0.40886259 0.34328898
1473347525.60693955 1.78857656 -1.44446952 1.26831943 -0.55041978 0.63855625 -0.41173395 0.34606233
1473347525.62346363 1.78753639 -1.45028305 1.26728734 -0.54960839 0.63522578 -0.41541494 0.34906913
1473347525.64252663 1.78611123 -1.45734153 1.26612931 -0.54795380 0.63313328 -0.41775650 0.35265903
1473347525.68262172 1.78346784 -1.47276655 1.26273214 -0.54444545 0.63298735 -0.41667975 0.35956106
1473347525.72431564 1.78292050 -1.48835836 1.25867920 -0.54143139 0.63543570 -0.41543970 0.36122482
1473347525.74279165 1.78133649 -1.49551726 1.25687025 -0.54266446 0.63372046 -0.41598679 0.36175773
1473347525.76455688 1.78135223 -1.50369883 1.25533266 -0.53746196 0.63413848 -0.42072454 0.36330964
1473347525.81479168 1.77954942 -1.52209825 1.25051660 -0.54034375 0.63493014 -0.41568544 0.36345283
1473347525.85291457 1.77929203 -1.53590814 1.24591472 -0.53794010 0.63282990 -0.41853104 0.36739424
1473347525.87471771 1.77890618 -1.54416785 1.24377728 -0.53591572 0.63314471 -0.42028747 0.36780506
1473347525.89723253 1.77854325 -1.55234726 1.24166609 -0.53394757 0.63245033 -0.42308254 0.36865666
1473347525.92529559 1.77826006 -1.56242853 1.23876015 -0.53034179 0.62934610 -0.42873539 0.37262185
1473347525.95559168 1.77730614 -1.57316972 1.23524392 -0.53236567 0.62947167 -0.42826471 0.37005614
1473347525.98754668 1.77723881 -1.58455476 1.23102139 -0.52830059 0.62998150 -0.43150758 0.37124521
1473347526.02021861 1.77560019 -1.59607236 1.22632045 -0.53080483 0.63043759 -0.42858380 0.37028450
1473347526.04544258 1.77497085 -1.60456532 1.22277130 -0.53043994 0.63111608 -0.43000883 0.36799236
1473347526.06696963 1.77436819 -1.61176769 1.22002552 -0.52888080 0.63179232 -0.43272489 0.36588622
1473347526.09215760 1.77351352 -1.62028106 1.21631236 -0.52414742 0.63032461 -0.43848530 0.36836260
1473347526.11623573 1.77246146 -1.62810303 1.21267511 -0.52399582 0.63215545 -0.43861892 0.36526882
1473347526.14047170 1.77188476 -1.63579645 1.20848973 -0.52189289 0.63239238 -0.44178424 0.36405273
1473347526.16831660 1.77198227 -1.64410862 1.20341111 -0.52002921 0.63549948 -0.44366231 0.35898995
1473347526.19347167 1.77008687 -1.65177712 1.19919426 -0.52388211 0.63951713 -0.43735059 0.35396305
1473347526.21361279 1.76954080 -1.65760362 1.19472521 -0.52546876 0.64044707 -0.43678798 0.35060860
1473347526.23490453 1.76914680 -1.66349212 1.19033638 -0.52698404 0.64036918 -0.43759850 0.34745171
1473347526.25789046 1.76890117 -1.67002670 1.18582392 -0.52680468 0.64116095 -0.43987976 0.34335880
1473347526.28883862 1.76844901 -1.67884762 1.18036902 -0.52544584 0.63909541 -0.44570443 0.34177665
1473347526.31129479 1.76868636 -1.68497348 1.17627141 -0.52624459 0.63750810 -0.44732500 0.34139477
1473347526.33035970 1.76906607 -1.69052444 1.17298773 -0.52761678 0.63913970 -0.44667465 0.33705005
1473347526.35262156 1.76922661 -1.69733849 1.16901902 -0.52490261 0.63574570 -0.45338451 0.33874347
1473347526.37742090 1.76967120 -1.70470621 1.16587743 -0.52339328 0.63618865 -0.45615189 0.33652479
1473347526.40240073 1.77039315 -1.71204723 1.16310727 -0.52271423 0.63597462 -0.45944884 0.33348594
1473347526.42813873 1.77140404 -1.71954380 1.16081708 -0.52237385 0.63648989 -0.46190125 0.32962618
1473347526.45697451 1.77336253 -1.72758590 1.15889053 -0.51907865 0.63796557 -0.46530240 0.32718643
1473347526.48301864 1.77382327 -1.73523945 1.15767929 -0.52019392 0.63787833 -0.46598666 0.32460122
1473347526.51094961 1.77575040 -1.74284767 1.15671901 -0.51830354 0.63816940 -0.46945552 0.32204467
1473347526.53820252 1.77767009 -1.75010761 1.15579108 -0.51977008 0.63792153 -0.47127922 0.31747611
1473347526.56211662 1.77995863 -1.75636647 1.15532394 -0.51793444 0.63818188 -0.47463341 0.31494591
1473347526.58647752 1.78229207 -1.76257177 1.15510094 -0.51596741 0.63858899 -0.47806623 0.31214485
1473347526.61194372 1.78521270 -1.76864599 1.15501234 -0.51470715 0.63839202 -0.48169163 0.30903941
1473347526.63577175 1.78816289 -1.77413288 1.15514774 -0.51288997 0.63834792 -0.48571291 0.30584110
1473347526.66546082 1.79240175 -1.78068906 1.15538151 -0.50931182 0.63980742 -0.48943672 0.30281948
1473347526.69362378 1.79587619 -1.78650466 1.15561996 -0.50861962 0.64040867 -0.49092134 0.30029828
1473347526.72486162 1.80041131 -1.79238362 1.15580257 -0.50751654 0.64191986 -0.49268102 0.29602579
1473347526.75285769 1.80495707 -1.79729138 1.15586184 -0.50484064 0.64414113 -0.49438312 0.29292228
1473347526.78111362 1.80956512 -1.80181834 1.15577646 -0.50259442 0.64798739 -0.49411711 0.28872041
1473347526.80822158 1.81481687 -1.80592466 1.15588230 -0.50169751 0.64967290 -0.49471966 0.28544211
1473347526.83437252 1.81897463 -1.80873488 1.15553428 -0.49727564 0.65501609 -0.49509101 0.28027798
1473347526.86157465 1.82577615 -1.81223040 1.15591078 -0.49006672 0.65777798 -0.50012093 0.27756403
1473347526.89050364 1.83091121 -1.81440478 1.15581695 -0.48572895 0.66098089 -0.50247153 0.27330203
1473347526.92719769 1.83812597 -1.81630279 1.15593541 -0.48207504 0.66491511 -0.50383016 0.26766905
